07/07/22	2:14 PM
Modulated Cross Correlation
Scattering angle:	20.0
Duration (s):	1200
Wavelength (nm):	660.0
Refractive index:	1.330
Viscosity (mPas):	0.890
Temperature (K):	298.1
Laser intensity (mW):	2.352715
Average Count rate  A (kHz):	69.2
Average Count rate  B (kHz):	59.0
Intercept:	0.3726
Cumulant 1st	NaN
Cumulant 2nd	NaN	NaN
Cumulant 3rd	NaN	NaN

Lag time (s)         g2-1
1.600000E-6	0.375554
3.200000E-6	0.375551
4.800000E-6	0.374158
6.400000E-6	0.373458
8.000000E-6	0.371903
9.600000E-6	0.370999
1.120000E-5	0.370621
1.280000E-5	0.369479
1.440000E-5	0.367826
1.600000E-5	0.366402
1.760000E-5	0.366767
1.920000E-5	0.364851
2.080000E-5	0.363996
2.240000E-5	0.362833
2.400000E-5	0.361825
2.560000E-5	0.361752
2.720000E-5	0.359456
3.040000E-5	0.356890
3.360000E-5	0.355017
3.680000E-5	0.353481
4.000000E-5	0.350738
4.320000E-5	0.348836
4.640000E-5	0.346733
4.960000E-5	0.345338
5.280000E-5	0.343013
5.920000E-5	0.338995
6.560000E-5	0.334793
7.200000E-5	0.331264
7.840000E-5	0.327340
8.480000E-5	0.323567
9.120000E-5	0.319555
9.760000E-5	0.316030
0.000104	0.312497
0.000117	0.305158
0.000130	0.298266
0.000142	0.291557
0.000155	0.285284
0.000168	0.278715
0.000181	0.272217
0.000194	0.266087
0.000206	0.259885
0.000232	0.248419
0.000258	0.237189
0.000283	0.226727
0.000309	0.216520
0.000334	0.206958
0.000360	0.197674
0.000386	0.189124
0.000411	0.180843
0.000462	0.165329
0.000514	0.151286
0.000565	0.138447
0.000616	0.126819
0.000667	0.116250
0.000718	0.106611
0.000770	0.097801
0.000821	0.089929
0.000923	0.076055
0.001026	0.064641
0.001128	0.054879
0.001230	0.047010
0.001333	0.040386
0.001435	0.034872
0.001538	0.030219
0.001640	0.026452
0.001845	0.019847
0.002050	0.015375
0.002254	0.012155
0.002459	0.009618
0.002664	0.007751
0.002869	0.006169
0.003074	0.004837
0.003278	0.003689
0.003688	0.001877
0.004098	0.001335
0.004507	0.001025
0.004917	0.001228
0.005326	0.001380
0.005736	0.001373
0.006146	0.001344
0.006555	0.001770
0.007374	0.001586
0.008194	0.000921
0.009013	0.000375
0.009832	-8.663671E-5
0.010651	0.000292
0.011470	0.000289
0.012290	0.000182
0.013109	-0.000589
0.014747	0.000153
0.016386	0.000116
0.018024	-0.000543
0.019662	0.000687
0.021301	-0.000243
0.022939	-0.000815
0.024578	-0.000977
0.026216	-0.000431
0.029493	0.000221
0.032770	-0.000809
0.036046	-0.000146
0.039323	0.000534
0.042600	0.001100
0.045877	5.543210E-5
0.049154	-7.600903E-5
0.052430	3.780646E-6
0.058984	0.000155
0.065538	0.000757
0.072091	-9.238330E-5
0.078645	-0.000155
0.085198	-0.000225
0.091752	3.609190E-5
0.098306	0.000333
0.104859	0.000152
0.117966	-0.000224
0.131074	0.000373
0.144181	-0.000127
0.157288	0.000264
0.170395	-0.000274
0.183502	-1.976653E-5
0.196610	8.712638E-5
0.209717	0.000345
0.235931	6.238699E-5
0.262146	2.875316E-5
0.288360	-0.000102
0.314574	-0.000360
0.340789	4.182892E-5
0.367003	-0.000189
0.393218	-9.277085E-5
0.419432	0.000149
0.471861	-0.000107
0.524290	0.000103
0.576718	0.000284
0.629147	-1.102441E-5
0.681576	0.000308
0.734005	2.736229E-5
0.786434	3.104382E-5
0.838862	-1.570521E-5
0.943720	0.000146
1.048578	0.000163
1.153435	1.700621E-5
1.258293	8.119760E-5
1.363150	0.000153
1.468008	0.000285
1.572866	-1.918666E-5
1.677723	-4.347906E-5
1.887438	0.000178
2.097154	0.000105
2.306869	0.000104
2.516584	2.294759E-5
2.726299	3.048145E-5
2.936014	6.856927E-6
3.145730	-1.608296E-5
3.355445	-5.248741E-5
3.774875	-2.709367E-5
4.194305	-5.631775E-5
4.613736	-5.452729E-5
5.033166	-5.359602E-5
5.452597	-6.159163E-5
5.872027	-9.886763E-5
6.291458	-7.675934E-5
6.710888	-9.171673E-5
7.549749	-0.000148
8.388610	-0.000152
9.227470	-0.000157
10.066331	-0.000171
10.905192	-0.000266
11.744053	-0.000320
12.582913	-0.000285
13.421775	-0.000261
15.099496	-0.000371
16.777218	-0.000386
18.454939	-0.000393
20.132660	-0.000476
21.810383	-0.000560
23.488104	-0.000660
25.165825	-0.000696
26.843548	-0.000790
30.198990	-0.000821
33.554432	-0.000882
36.909878	-0.000943
40.265320	-0.000964
43.620762	-0.000932
46.976208	-0.000941
50.331650	-0.000899
53.687092	-0.000875
60.397980	-0.000914
67.108864	-0.000949
73.819756	-0.000879
80.530640	-0.000938
87.241524	-0.000943
93.952408	-0.001027
100.663300	-0.001023
107.374184	-0.000989
120.795959	-0.000732
134.217728	-0.000611
147.639496	-0.000533
161.061279	-0.000634
174.483047	-0.000399
187.904816	-0.000432
201.326599	0.000130
214.748367	0.000454
241.591919	0.000667
268.435455	0.000956
295.278992	0.001420
322.122559	0.002023
348.966095	0.002202
375.809631	0.001632
402.653198	0.001604
429.496735	0.002226
483.183807	0.003272
536.870911	0.004304
590.557983	0.006418
644.245117	0.006909
697.932190	0.006887
751.619263	0.008092
805.306396	0.009360
858.993469	0.009495
966.367615	0.012955
1073.741821	0.001837

Count Rate History (KHz)  CR CHA / CR CHB
0.000000	77.991486	69.694519
0.052429	72.345734	57.849884
0.104858	82.416534	77.018738
0.157286	70.114136	81.558228
0.209715	55.828094	48.160553
0.262144	78.029633	67.234039
0.314573	68.016052	78.163147
0.367002	70.629120	76.675415
0.419430	51.898956	69.255829
0.471859	76.141357	64.487457
0.524288	73.776245	67.119598
0.576717	68.168640	61.779022
0.629146	66.375732	64.716339
0.681574	48.389435	47.893524
0.734003	75.931549	58.441162
0.786432	100.440979	71.811676
0.838861	66.452026	59.185028
0.891290	81.672668	55.408478
0.943718	88.920593	64.945221
0.996147	74.214935	54.302216
1.048576	70.304871	54.035187
1.101005	70.457458	52.661896
1.153434	62.999725	57.277679
1.205862	62.885284	49.858093
1.258291	69.656372	49.514771
1.310720	51.403046	57.067871
1.363149	83.255768	51.403046
1.415578	66.585541	54.073334
1.468006	72.803497	61.473846
1.520435	72.879791	63.095093
1.572864	80.814362	51.441193
1.625293	72.097778	62.770844
1.677722	72.078705	62.236786
1.730150	64.430237	61.473846
1.782579	73.032379	55.885315
1.835008	69.637299	51.269531
1.887437	81.806183	72.193146
1.939866	66.432953	46.691895
1.992294	78.182220	72.650909
2.044723	112.438202	79.746246
2.097152	55.027008	58.479309
2.149581	72.059631	69.179535
2.202010	60.997009	50.163269
2.254438	74.195862	54.378510
2.306867	75.569153	68.359375
2.359296	73.509216	60.195923
2.411725	57.678223	62.847137
2.464154	64.811707	70.972443
2.516582	72.422028	56.686401
2.569011	94.299316	58.059692
2.621440	66.223145	47.912598
2.673869	79.231262	82.588196
2.726298	66.623688	64.849854
2.778726	91.953278	67.749023
2.831155	62.026978	58.994293
2.883584	72.498322	77.781677
2.936013	74.882507	62.103271
2.988442	61.206818	56.190491
3.040870	89.664459	63.934326
3.093299	92.086792	63.056946
3.145728	63.877106	58.002472
3.198157	68.988800	60.043335
3.250586	74.119568	63.533783
3.303014	80.070496	79.574585
3.355443	72.231293	60.596466
3.407872	79.479218	64.640045
3.460301	59.471130	51.860809
3.512730	67.710876	56.838989
3.565158	64.105988	64.029694
3.617587	64.697266	47.073364
3.670016	65.765381	57.048798
3.722445	98.381042	83.427429
3.774874	67.520142	61.874390
3.827302	80.795288	55.103302
3.879731	85.010529	71.430206
3.932160	88.272095	64.697266
3.984589	89.702606	78.315735
4.037018	61.035156	58.441162
4.089446	101.852417	60.634613
4.141875	58.155060	56.228638
4.194304	81.920624	65.994263
4.246733	73.070526	65.155029
4.299162	55.084229	63.877106
4.351590	69.942474	56.209564
4.404019	66.242218	49.762726
4.456448	62.255859	61.149597
4.508877	65.402985	56.056976
4.561306	80.566406	62.370300
4.613734	97.694397	81.939697
4.666163	65.994263	69.675446
4.718592	68.969727	72.250366
4.771021	61.912537	49.648285
4.823450	71.296692	67.920685
4.875878	71.735382	66.242218
4.928307	79.021454	57.964325
4.980736	86.059570	72.307587
5.033165	80.146790	74.844360
5.085594	62.294006	45.127869
5.138022	62.465668	56.667328
5.190451	63.133240	60.729980
5.242880	86.326599	57.201385
5.295309	99.182129	61.016083
5.347738	69.389343	65.631866
5.400166	54.969788	59.566498
5.452595	61.264038	64.144135
5.505024	100.765228	50.029755
5.557453	57.563782	52.642822
5.609882	88.806152	72.021484
5.662310	79.326630	60.253143
5.714739	71.945190	57.582855
5.767168	63.591003	81.462860
5.819597	61.397552	51.345825
5.872026	69.770813	56.667328
5.924454	65.155029	56.629181
5.976883	76.675415	65.364838
6.029312	87.585449	53.882599
6.081741	86.345673	52.204132
6.134170	74.481964	69.370270
6.186598	74.958801	68.607330
6.239027	73.814392	64.449310
6.291456	70.323944	52.757263
6.343885	55.999756	58.174133
6.396314	91.972351	76.446533
6.448742	68.836212	63.381195
6.501171	72.917938	60.424805
6.553600	65.917969	55.255890
6.606029	77.037811	64.182281
6.658458	59.013367	68.054199
6.710886	62.198639	47.302246
6.763315	56.800842	57.468414
6.815744	77.610016	50.220490
6.868173	65.879822	52.947998
6.920602	81.653595	68.778992
6.973030	71.887970	68.283081
7.025459	76.332092	60.634613
7.077888	65.460205	64.449310
7.130317	73.566437	64.201355
7.182746	94.089508	77.915192
7.235174	59.013367	59.509277
7.287603	60.310364	51.460266
7.340032	73.471069	68.855286
7.392461	76.217651	80.184937
7.444890	59.814453	50.563812
7.497318	79.135895	56.762695
7.549747	67.329407	55.942535
7.602176	80.299377	81.176758
7.654605	68.435669	50.926208
7.707034	60.672760	46.539307
7.759462	87.013245	54.664612
7.811891	82.950592	58.937073
7.864320	74.424744	67.481995
7.916749	69.332123	54.473877
7.969178	63.514709	57.487488
8.021606	83.255768	58.460236
8.074035	70.247650	58.517456
8.126464	71.754456	63.171387
8.178893	62.484741	72.154999
8.231322	57.964325	58.307648
8.283750	79.269409	48.904419
8.336179	51.803589	40.950775
8.388608	75.511932	63.819885
8.441037	62.561035	59.986115
8.493466	74.234009	61.416626
8.545894	76.580048	60.710907
8.598323	57.258606	48.637390
8.650752	71.620941	51.269531
8.703181	85.830688	82.168579
8.755610	79.383850	56.018829
8.808038	73.223114	51.078796
8.860467	83.351135	69.046021
8.912896	86.231232	66.394806
8.965325	51.841736	56.285858
9.017754	67.005157	57.754517
9.070182	56.800842	52.833557
9.122611	79.002380	59.413910
9.175040	102.672577	57.449341
9.227469	59.452057	65.326691
9.279898	63.953400	65.898895
9.332326	79.917908	48.980713
9.384755	56.018829	56.152344
9.437184	95.767975	51.727295
9.489613	67.882538	59.356689
9.542042	82.530975	67.253113
9.594470	73.566437	57.086945
9.646899	79.288483	73.127747
9.699328	66.890717	66.699982
9.751757	87.356567	64.353943
9.804186	72.212219	63.838959
9.856614	62.980652	71.659088
9.909043	53.787231	48.122406
9.961472	71.506500	52.585602
10.013901	86.727142	77.114105
10.066330	59.070587	59.337616
10.118758	79.822540	63.858032
10.171187	65.689087	53.501129
10.223616	71.525574	66.165924
10.276045	73.795319	59.547424
10.328474	65.708160	51.727295
10.380902	77.190399	89.607239
10.433331	58.994293	57.926178
10.485760	68.244934	57.868958
10.538189	61.569214	56.476593
10.590618	83.484650	71.983337
10.643046	94.051361	68.397522
10.695475	67.024231	71.716309
10.747904	116.424561	46.730042
10.800333	74.768066	51.536560
10.852762	74.787140	59.757233
10.905190	58.193207	65.917969
10.957619	74.920654	60.558319
11.010048	81.062317	51.021576
11.062477	74.806213	54.283142
11.114906	60.272217	52.967072
11.167334	92.067719	65.879822
11.219763	93.460083	80.909729
11.272192	61.607361	60.482025
11.324621	60.462952	60.997009
11.377050	68.912506	68.817139
11.429478	80.642700	67.386627
11.481907	64.888000	58.212280
11.534336	70.991516	50.506592
11.586765	77.247620	66.070557
11.639194	68.874359	62.980652
11.691622	75.893402	53.520203
11.744051	67.825317	68.454742
11.796480	65.250397	46.958923
11.848909	74.405670	59.318542
11.901338	70.381165	52.375793
11.953766	61.759949	59.146881
12.006195	67.043304	47.512054
12.058624	67.176819	62.694550
12.111053	65.841675	69.808960
12.163482	88.024139	52.375793
12.215910	92.830658	65.879822
12.268339	70.953369	65.517426
12.320768	58.689117	63.152313
12.373197	62.294006	63.362122
12.425626	69.694519	54.874420
12.478054	68.836212	53.024292
12.530483	71.907043	55.084229
12.582912	74.939728	52.680969
12.635341	59.337616	48.484802
12.687770	64.239502	62.808990
12.740198	60.367584	41.694641
12.792627	59.947968	65.002441
12.845056	83.122253	63.552856
12.897485	58.727264	57.182312
12.949914	89.511871	70.343018
13.002342	73.833466	49.800873
13.054771	113.754272	50.258636
13.107200	78.868866	58.765411
13.159629	58.937073	58.689117
13.212058	72.078705	60.653687
13.264486	86.936951	65.422058
13.316915	51.059723	54.054260
13.369344	77.419281	52.299500
13.421773	58.078766	53.272247
13.474202	54.683685	63.171387
13.526630	58.994293	53.272247
13.579059	85.659027	63.743591
13.631488	62.713623	58.460236
13.683917	100.555420	66.757202
13.736346	70.762634	55.904388
13.788774	80.375671	74.081421
13.841203	60.882568	58.326721
13.893632	58.517456	59.013367
13.946061	64.449310	64.640045
13.998490	58.765411	42.495728
14.050918	71.411133	71.125031
14.103347	62.522888	63.476562
14.155776	56.266785	62.046051
14.208205	71.697235	66.013336
14.260634	80.699921	71.544647
14.313062	88.729858	55.770874
14.365491	61.721802	64.086914
14.417920	67.157745	60.787201
14.470349	91.953278	74.806213
14.522778	85.468292	63.495636
14.575206	79.746246	62.980652
14.627635	67.768097	76.351166
14.680064	72.345734	69.007874
14.732493	71.067810	58.422089
14.784922	72.860718	56.896210
14.837350	70.419312	52.108765
14.889779	61.206818	69.427490
14.942208	53.424835	52.547455
14.994637	77.419281	57.201385
15.047066	67.291260	57.563782
15.099494	72.441101	58.593750
15.151923	62.179565	51.441193
15.204352	73.032379	71.239471
15.256781	95.310211	62.561035
15.309210	73.451996	91.724396
15.361638	66.013336	48.561096
15.414067	72.441101	54.855347
15.466496	78.811646	73.451996
15.518925	61.302185	41.179657
15.571354	68.550110	64.716339
15.623782	58.803558	41.522980
15.676211	69.007874	52.375793
15.728640	70.705414	52.490234
15.781069	74.691772	61.302185
15.833498	73.509216	52.585602
15.885926	68.492889	73.795319
15.938355	80.909729	76.026917
15.990784	68.321228	57.125092
16.043213	73.986053	49.037933
16.095642	73.661804	63.705444
16.148070	77.610016	55.923462
16.200499	63.953400	62.561035
16.252928	60.100555	52.146912
16.305357	74.386597	76.408386
16.357786	76.789856	67.291260
16.410214	65.498352	48.656464
16.462643	77.152252	52.299500
16.515072	81.272125	62.885284
16.567501	73.146820	66.337585
16.619930	75.626373	60.768127
16.672358	64.163208	54.950714
16.724787	69.408417	69.808960
16.777216	71.048737	59.127808
16.829645	68.931580	48.847198
16.882074	61.607361	66.757202
16.934502	74.901581	59.413910
16.986931	63.819885	48.561096
17.039360	83.503723	67.329407
17.091789	83.084106	62.103271
17.144218	63.056946	59.547424
17.196646	86.078644	67.558289
17.249075	61.740875	51.231384
17.301504	77.304840	63.190460
17.353933	72.212219	80.490112
17.406362	80.680847	75.969696
17.458790	57.735443	58.174133
17.511219	81.520081	57.659149
17.563648	84.743500	59.013367
17.616077	73.566437	73.108673
17.668506	70.152283	68.912506
17.720934	98.400116	61.492920
17.773363	71.392059	64.334869
17.825792	66.032410	49.858093
17.878221	69.522858	69.198608
17.930650	62.198639	58.879852
17.983078	69.503784	50.659180
18.035507	71.773529	63.896179
18.087936	62.866211	52.795410
18.140365	66.108704	48.961639
18.192794	56.724548	58.078766
18.245222	69.198608	69.656372
18.297651	60.482025	55.351257
18.350080	73.490143	72.212219
18.402509	68.511963	62.026978
18.454938	82.035065	53.653717
18.507366	64.086914	57.373047
18.559795	84.609985	65.345764
18.612224	65.917969	71.983337
18.664653	76.675415	62.446594
18.717082	82.283020	63.056946
18.769510	77.266693	57.392120
18.821939	61.721802	57.945251
18.874368	65.937042	47.149658
18.926797	54.244995	51.307678
18.979226	69.980621	55.141449
19.031654	63.457489	41.198730
19.084083	77.877045	56.228638
19.136512	58.231354	45.337677
19.188941	67.348480	56.743622
19.241370	64.697266	69.656372
19.293798	75.092316	71.029663
19.346227	53.920746	53.291321
19.398656	65.956116	66.127777
19.451085	99.945068	76.293945
19.503514	76.274872	70.476532
19.555942	74.367523	61.721802
19.608371	70.724487	56.037903
19.660800	90.045929	61.645508
19.713229	76.465607	65.116882
19.765658	70.075989	79.193115
19.818086	66.184998	56.819916
19.870515	68.359375	44.174194
19.922944	81.233978	64.105988
19.975373	61.550140	56.991577
20.027802	78.468323	51.498413
20.080230	87.757111	67.520142
20.132659	61.855316	68.283081
20.185088	68.626404	66.757202
20.237517	79.078674	85.277557
20.289946	73.490143	65.708160
20.342374	70.953369	56.190491
20.394803	55.866241	56.133270
20.447232	58.441162	64.773560
20.499661	70.056915	53.939819
20.552090	89.054108	69.370270
20.604518	72.135925	55.999756
20.656947	77.228546	54.588318
20.709376	88.138580	57.525635
20.761805	103.416443	67.100525
20.814234	82.015991	54.550171
20.866662	62.713623	50.983429
20.919091	77.877045	58.689117
20.971520	64.296722	66.452026
21.023949	83.007812	55.332184
21.076378	71.487427	65.841675
21.128806	76.332092	78.563690
21.181235	64.449310	71.620941
21.233664	58.708191	60.939789
21.286093	58.097839	39.558411
21.338522	72.765350	52.986145
21.390950	104.351044	61.187744
21.443379	81.691742	66.223145
21.495808	65.460205	71.487427
21.548237	71.964264	66.795349
21.600666	62.046051	42.419434
21.653094	60.787201	62.923431
21.705523	83.198547	67.768097
21.757952	89.225769	61.435699
21.810381	77.762604	67.653656
21.862810	68.264008	54.073334
21.915238	67.996979	71.086884
21.967667	70.858002	70.190430
22.020096	62.294006	47.225952
22.072525	73.184967	68.511963
22.124954	65.689087	54.016113
22.177382	70.877075	60.768127
22.229811	79.231262	60.882568
22.282240	66.986084	60.405731
22.334669	74.424744	56.629181
22.387098	97.179413	67.539215
22.439526	55.904388	75.397491
22.491955	55.217743	55.465698
22.544384	57.430267	50.125122
22.596813	60.424805	55.503845
22.649242	73.699951	66.337585
22.701670	66.108704	52.871704
22.754099	69.274902	84.552765
22.806528	49.896240	51.002502
22.858957	60.291290	68.798065
22.911386	82.149506	83.370209
22.963814	69.770813	58.364868
23.016243	64.640045	53.195953
23.068672	54.836273	46.024323
23.121101	69.808960	64.296722
23.173530	60.806274	68.931580
23.225958	69.904327	65.402985
23.278387	69.046021	69.866180
23.330816	79.860687	64.678192
23.383245	79.002380	87.852478
23.435674	73.909760	67.596436
23.488102	59.547424	71.849823
23.540531	72.956085	58.135986
23.592960	69.084167	54.264069
23.645389	66.967010	52.185059
23.697818	64.296722	56.457520
23.750246	73.642731	65.612793
23.802675	77.476501	67.691803
23.855104	79.231262	60.806274
23.907533	63.705444	43.792725
23.959962	73.432922	63.533783
24.012390	56.762695	41.618347
24.064819	65.593719	52.471161
24.117248	76.694489	66.699982
24.169677	76.179504	51.898956
24.222106	81.958771	61.454773
24.274534	71.201324	54.016113
24.326963	85.945129	69.561005
24.379392	78.258514	49.743652
24.431821	72.555542	58.612823
24.484250	78.887939	66.108704
24.536678	66.051483	62.313080
24.589107	84.667206	65.746307
24.641536	71.601868	61.912537
24.693965	57.220459	61.378479
24.746394	93.345642	79.593658
24.798822	74.901581	75.187683
24.851251	84.609985	38.814545
24.903680	73.261261	58.155060
24.956109	66.699982	59.947968
25.008538	64.163208	64.373016
25.060966	70.858002	58.727264
25.113395	71.411133	63.285828
25.165824	57.849884	60.806274
25.218253	69.561005	70.056915
25.270682	61.168671	68.321228
25.323110	75.054169	55.103302
25.375539	78.296661	51.708221
25.427968	68.950653	94.394684
25.480397	71.659088	72.994232
25.532826	75.225830	68.454742
25.585254	59.318542	56.171417
25.637683	69.694519	60.119629
25.690112	57.830811	52.471161
